Cycle 3:on_SiO_5.spe:SnSe2 bulk exfoliated on SiSiO2:Sn 3d 3
	Characteristic Energy eV	1.486600e+003	Acquisition Time s	2.500000e+000
Name		Sn 3d	Sn 3d	
Position		487.79	496.22	
FWHM		1.44	1.44	
Area		1205.37	803.58	
Lineshape		LA(50)	LA(50)	
K.E.	Counts	Sn 3d	Sn 3d	Background	Envelope		B.E.	CPS	Sn 3d	Sn 3d	Background CPS	Envelope CPS
9.846000e+002	7.140000e+002	7.146328e+002	7.166109e+002	7.140000e+002	7.172437e+002		5.020000e+002	2.856000e+002	2.858531e+002	2.866444e+002	2.856000e+002	2.868975e+002
9.846500e+002	7.430000e+002	7.436373e+002	7.456580e+002	7.430000e+002	7.462953e+002		5.019500e+002	2.972000e+002	2.974549e+002	2.982632e+002	2.972000e+002	2.985181e+002
9.847000e+002	7.000000e+002	7.006418e+002	7.027064e+002	7.000000e+002	7.033482e+002		5.019000e+002	2.800000e+002	2.802567e+002	2.810826e+002	2.800000e+002	2.813393e+002
9.847500e+002	7.620000e+002	7.626464e+002	7.647560e+002	7.620000e+002	7.654024e+002		5.018500e+002	3.048000e+002	3.050586e+002	3.059024e+002	3.048000e+002	3.061610e+002
9.848000e+002	7.150000e+002	7.156510e+002	7.178071e+002	7.150000e+002	7.184581e+002		5.018000e+002	2.860000e+002	2.862604e+002	2.871228e+002	2.860000e+002	2.873832e+002
9.848500e+002	7.420000e+002	7.426557e+002	7.448597e+002	7.420000e+002	7.455155e+002		5.017500e+002	2.968000e+002	2.970623e+002	2.979439e+002	2.968000e+002	2.982062e+002
9.849000e+002	7.430000e+002	7.436605e+002	7.459139e+002	7.430000e+002	7.465744e+002		5.017000e+002	2.972000e+002	2.974642e+002	2.983656e+002	2.972000e+002	2.986298e+002
9.849500e+002	7.240000e+002	7.246653e+002	7.269696e+002	7.240000e+002	7.276349e+002		5.016500e+002	2.896000e+002	2.898661e+002	2.907878e+002	2.896000e+002	2.910540e+002
9.850000e+002	7.180000e+002	7.186701e+002	7.210269e+002	7.180000e+002	7.216970e+002		5.016000e+002	2.872000e+002	2.874681e+002	2.884108e+002	2.872000e+002	2.886788e+002
9.850500e+002	6.240000e+002	6.246750e+002	6.270859e+002	6.240000e+002	6.277609e+002		5.015500e+002	2.496000e+002	2.498700e+002	2.508343e+002	2.496000e+002	2.511044e+002
9.851000e+002	6.740000e+002	6.746800e+002	6.771465e+002	6.740000e+002	6.778265e+002		5.015000e+002	2.696000e+002	2.698720e+002	2.708586e+002	2.696000e+002	2.711306e+002
9.851500e+002	6.980000e+002	6.986850e+002	7.012089e+002	6.980000e+002	7.018939e+002		5.014500e+002	2.792000e+002	2.794740e+002	2.804836e+002	2.792000e+002	2.807576e+002
9.852000e+002	7.060000e+002	7.066901e+002	7.092735e+002	7.060000e+002	7.099635e+002		5.014000e+002	2.824000e+002	2.826760e+002	2.837094e+002	2.824000e+002	2.839854e+002
9.852500e+002	6.990000e+002	6.996952e+002	7.023401e+002	6.990000e+002	7.030353e+002		5.013500e+002	2.796000e+002	2.798781e+002	2.809360e+002	2.796000e+002	2.812141e+002
9.853000e+002	7.000000e+002	7.007004e+002	7.034087e+002	7.000000e+002	7.041091e+002		5.013000e+002	2.800000e+002	2.802801e+002	2.813635e+002	2.800000e+002	2.816436e+002
9.853500e+002	6.700000e+002	6.707056e+002	6.734795e+002	6.700000e+002	6.741850e+002		5.012500e+002	2.680000e+002	2.682822e+002	2.693918e+002	2.680000e+002	2.696740e+002
9.854000e+002	7.060000e+002	7.067109e+002	7.095524e+002	7.060000e+002	7.102633e+002		5.012000e+002	2.824000e+002	2.826844e+002	2.838210e+002	2.824000e+002	2.841053e+002
9.854500e+002	6.990000e+002	6.997162e+002	7.026276e+002	6.990000e+002	7.033438e+002		5.011500e+002	2.796000e+002	2.798865e+002	2.810510e+002	2.796000e+002	2.813375e+002
9.855000e+002	7.500000e+002	7.187217e+002	7.217052e+002	7.180000e+002	7.224268e+002		5.011000e+002	3.000000e+002	2.874887e+002	2.886821e+002	2.872000e+002	2.889707e+002
9.855500e+002	7.050000e+002	7.183002e+002	7.213586e+002	7.175731e+002	7.220858e+002		5.010500e+002	2.820000e+002	2.873201e+002	2.885435e+002	2.870292e+002	2.888343e+002
9.856000e+002	7.220000e+002	7.178765e+002	7.210126e+002	7.171438e+002	7.217452e+002		5.010000e+002	2.888000e+002	2.871506e+002	2.884050e+002	2.868575e+002	2.886981e+002
9.856500e+002	7.110000e+002	7.174506e+002	7.206670e+002	7.167123e+002	7.214053e+002		5.009500e+002	2.844000e+002	2.869802e+002	2.882668e+002	2.866849e+002	2.885621e+002
9.857000e+002	7.040000e+002	7.170224e+002	7.203219e+002	7.162784e+002	7.210659e+002		5.009000e+002	2.816000e+002	2.868090e+002	2.881288e+002	2.865114e+002	2.884264e+002
9.857500e+002	7.030000e+002	7.165919e+002	7.199775e+002	7.158422e+002	7.207272e+002		5.008500e+002	2.812000e+002	2.866368e+002	2.879910e+002	2.863369e+002	2.882909e+002
9.858000e+002	7.010000e+002	7.161591e+002	7.196338e+002	7.154036e+002	7.203893e+002		5.008000e+002	2.804000e+002	2.864636e+002	2.878535e+002	2.861614e+002	2.881557e+002
9.858500e+002	7.080000e+002	7.157239e+002	7.192909e+002	7.149625e+002	7.200523e+002		5.007500e+002	2.832000e+002	2.862895e+002	2.877164e+002	2.859850e+002	2.880209e+002
9.859000e+002	6.410000e+002	7.152864e+002	7.189494e+002	7.145191e+002	7.197167e+002		5.007000e+002	2.564000e+002	2.861146e+002	2.875798e+002	2.858076e+002	2.878867e+002
9.859500e+002	7.340000e+002	7.148461e+002	7.186090e+002	7.140728e+002	7.193824e+002		5.006500e+002	2.936000e+002	2.859384e+002	2.874436e+002	2.856291e+002	2.877529e+002
9.860000e+002	6.980000e+002	7.144037e+002	7.182704e+002	7.136243e+002	7.190497e+002		5.006000e+002	2.792000e+002	2.857615e+002	2.873081e+002	2.854497e+002	2.876199e+002
9.860500e+002	6.440000e+002	7.139590e+002	7.179333e+002	7.131735e+002	7.187188e+002		5.005500e+002	2.576000e+002	2.855836e+002	2.871733e+002	2.852694e+002	2.874875e+002
9.861000e+002	7.030000e+002	7.135115e+002	7.175974e+002	7.127197e+002	7.183892e+002		5.005000e+002	2.812000e+002	2.854046e+002	2.870390e+002	2.850879e+002	2.873557e+002
9.861500e+002	7.160000e+002	7.130616e+002	7.172637e+002	7.122635e+002	7.180617e+002		5.004500e+002	2.864000e+002	2.852246e+002	2.869055e+002	2.849054e+002	2.872247e+002
9.862000e+002	7.040000e+002	7.126096e+002	7.169323e+002	7.118051e+002	7.177367e+002		5.004000e+002	2.816000e+002	2.850438e+002	2.867729e+002	2.847221e+002	2.870947e+002
9.862500e+002	6.790000e+002	7.121553e+002	7.166036e+002	7.113444e+002	7.174145e+002		5.003500e+002	2.716000e+002	2.848621e+002	2.866414e+002	2.845378e+002	2.869658e+002
9.863000e+002	7.300000e+002	7.116985e+002	7.162783e+002	7.108811e+002	7.170957e+002		5.003000e+002	2.920000e+002	2.846794e+002	2.865113e+002	2.843524e+002	2.868383e+002
9.863500e+002	7.010000e+002	7.112397e+002	7.159564e+002	7.104156e+002	7.167805e+002		5.002500e+002	2.804000e+002	2.844959e+002	2.863826e+002	2.841663e+002	2.867122e+002
9.864000e+002	6.800000e+002	7.107786e+002	7.156379e+002	7.099478e+002	7.164687e+002		5.002000e+002	2.720000e+002	2.843114e+002	2.862552e+002	2.839791e+002	2.865875e+002
9.864500e+002	7.040000e+002	7.103150e+002	7.153230e+002	7.094775e+002	7.161605e+002		5.001500e+002	2.816000e+002	2.841260e+002	2.861292e+002	2.837910e+002	2.864642e+002
9.865000e+002	6.750000e+002	7.098491e+002	7.150122e+002	7.090048e+002	7.158565e+002		5.001000e+002	2.700000e+002	2.839397e+002	2.860049e+002	2.836019e+002	2.863426e+002
9.865500e+002	6.760000e+002	7.093808e+002	7.147056e+002	7.085295e+002	7.155569e+002		5.000500e+002	2.704000e+002	2.837523e+002	2.858822e+002	2.834118e+002	2.862227e+002
9.866000e+002	6.790000e+002	7.089100e+002	7.144038e+002	7.080517e+002	7.152621e+002		5.000000e+002	2.716000e+002	2.835640e+002	2.857615e+002	2.832207e+002	2.861048e+002
9.866500e+002	6.600000e+002	7.084367e+002	7.141084e+002	7.075713e+002	7.149738e+002		4.999500e+002	2.640000e+002	2.833747e+002	2.856434e+002	2.830285e+002	2.859895e+002
9.867000e+002	6.900000e+002	7.079608e+002	7.138186e+002	7.070882e+002	7.146912e+002		4.999000e+002	2.760000e+002	2.831843e+002	2.855274e+002	2.828353e+002	2.858765e+002
9.867500e+002	7.010000e+002	7.074826e+002	7.135351e+002	7.066027e+002	7.144150e+002		4.998500e+002	2.804000e+002	2.829931e+002	2.854140e+002	2.826411e+002	2.857660e+002
9.868000e+002	6.450000e+002	7.070022e+002	7.132586e+002	7.061149e+002	7.141459e+002		4.998000e+002	2.580000e+002	2.828009e+002	2.853034e+002	2.824459e+002	2.856584e+002
9.868500e+002	7.240000e+002	7.065190e+002	7.129891e+002	7.056242e+002	7.138839e+002		4.997500e+002	2.896000e+002	2.826076e+002	2.851956e+002	2.822497e+002	2.855536e+002
9.869000e+002	6.890000e+002	7.060338e+002	7.127280e+002	7.051314e+002	7.136304e+002		4.997000e+002	2.756000e+002	2.824135e+002	2.850912e+002	2.820526e+002	2.854521e+002
9.869500e+002	6.690000e+002	7.055463e+002	7.124757e+002	7.046363e+002	7.133857e+002		4.996500e+002	2.676000e+002	2.822185e+002	2.849903e+002	2.818545e+002	2.853543e+002
9.870000e+002	6.440000e+002	7.050563e+002	7.122350e+002	7.041385e+002	7.131528e+002		4.996000e+002	2.576000e+002	2.820225e+002	2.848940e+002	2.816554e+002	2.852611e+002
9.870500e+002	7.130000e+002	7.045636e+002	7.120048e+002	7.036380e+002	7.129305e+002		4.995500e+002	2.852000e+002	2.818255e+002	2.848019e+002	2.814552e+002	2.851722e+002
9.871000e+002	7.290000e+002	7.040689e+002	7.117864e+002	7.031352e+002	7.127200e+002		4.995000e+002	2.916000e+002	2.816275e+002	2.847145e+002	2.812541e+002	2.850880e+002
9.871500e+002	6.880000e+002	7.035722e+002	7.115809e+002	7.026305e+002	7.125226e+002		4.994500e+002	2.752000e+002	2.814289e+002	2.846324e+002	2.810522e+002	2.850091e+002
9.872000e+002	6.470000e+002	7.030732e+002	7.113892e+002	7.021233e+002	7.123391e+002		4.994000e+002	2.588000e+002	2.812293e+002	2.845557e+002	2.808493e+002	2.849356e+002
9.872500e+002	6.820000e+002	7.025716e+002	7.112120e+002	7.016134e+002	7.121702e+002		4.993500e+002	2.728000e+002	2.810286e+002	2.844848e+002	2.806454e+002	2.848681e+002
9.873000e+002	6.210000e+002	7.020677e+002	7.110510e+002	7.011011e+002	7.120176e+002		4.993000e+002	2.484000e+002	2.808271e+002	2.844204e+002	2.804404e+002	2.848070e+002
9.873500e+002	6.960000e+002	7.015609e+002	7.109106e+002	7.005858e+002	7.118857e+002		4.992500e+002	2.784000e+002	2.806244e+002	2.843643e+002	2.802343e+002	2.847543e+002
9.874000e+002	6.670000e+002	7.010520e+002	7.107912e+002	7.000683e+002	7.117749e+002		4.992000e+002	2.668000e+002	2.804208e+002	2.843165e+002	2.800273e+002	2.847100e+002
9.874500e+002	6.790000e+002	7.005406e+002	7.106936e+002	6.995482e+002	7.116861e+002		4.991500e+002	2.716000e+002	2.802162e+002	2.842775e+002	2.798193e+002	2.846744e+002
9.875000e+002	6.810000e+002	7.000269e+002	7.106203e+002	6.990256e+002	7.116216e+002		4.991000e+002	2.724000e+002	2.800108e+002	2.842481e+002	2.796103e+002	2.846486e+002
9.875500e+002	6.450000e+002	6.995110e+002	7.105735e+002	6.985007e+002	7.115837e+002		4.990500e+002	2.580000e+002	2.798044e+002	2.842294e+002	2.794003e+002	2.846335e+002
9.876000e+002	6.900000e+002	6.989925e+002	7.105557e+002	6.979731e+002	7.115750e+002		4.990000e+002	2.760000e+002	2.795970e+002	2.842223e+002	2.791892e+002	2.846300e+002
9.876500e+002	6.780000e+002	6.984718e+002	7.105704e+002	6.974432e+002	7.115990e+002		4.989500e+002	2.712000e+002	2.793887e+002	2.842282e+002	2.789773e+002	2.846396e+002
9.877000e+002	7.610000e+002	6.979488e+002	7.106268e+002	6.969109e+002	7.116647e+002		4.989000e+002	3.044000e+002	2.791795e+002	2.842507e+002	2.787644e+002	2.846659e+002
9.877500e+002	6.780000e+002	6.974243e+002	7.107288e+002	6.963769e+002	7.117761e+002		4.988500e+002	2.712000e+002	2.789697e+002	2.842915e+002	2.785508e+002	2.847105e+002
9.878000e+002	6.810000e+002	6.968976e+002	7.108786e+002	6.958406e+002	7.119356e+002		4.988000e+002	2.724000e+002	2.787590e+002	2.843515e+002	2.783362e+002	2.847743e+002
9.878500e+002	7.250000e+002	6.963687e+002	7.110832e+002	6.953019e+002	7.121499e+002		4.987500e+002	2.900000e+002	2.785475e+002	2.844333e+002	2.781208e+002	2.848600e+002
9.879000e+002	6.730000e+002	6.958379e+002	7.113512e+002	6.947614e+002	7.124278e+002		4.987000e+002	2.692000e+002	2.783352e+002	2.845405e+002	2.779045e+002	2.849711e+002
9.879500e+002	6.930000e+002	6.953050e+002	7.116921e+002	6.942184e+002	7.127787e+002		4.986500e+002	2.772000e+002	2.781220e+002	2.846769e+002	2.776873e+002	2.851115e+002
9.880000e+002	6.800000e+002	6.947699e+002	7.121181e+002	6.936732e+002	7.132148e+002		4.986000e+002	2.720000e+002	2.779080e+002	2.848472e+002	2.774693e+002	2.852859e+002
9.880500e+002	7.040000e+002	6.942327e+002	7.126531e+002	6.931257e+002	7.137601e+002		4.985500e+002	2.816000e+002	2.776931e+002	2.850612e+002	2.772503e+002	2.855041e+002
9.881000e+002	6.730000e+002	6.936936e+002	7.133132e+002	6.925761e+002	7.144307e+002		4.985000e+002	2.692000e+002	2.774774e+002	2.853253e+002	2.770304e+002	2.857723e+002
9.881500e+002	6.920000e+002	6.931523e+002	7.141070e+002	6.920242e+002	7.152350e+002		4.984500e+002	2.768000e+002	2.772609e+002	2.856428e+002	2.768097e+002	2.860940e+002
9.882000e+002	6.770000e+002	6.926089e+002	7.150577e+002	6.914701e+002	7.161965e+002		4.984000e+002	2.708000e+002	2.770436e+002	2.860231e+002	2.765880e+002	2.864786e+002
9.882500e+002	7.160000e+002	6.920634e+002	7.161932e+002	6.909137e+002	7.173429e+002		4.983500e+002	2.864000e+002	2.768254e+002	2.864773e+002	2.763655e+002	2.869372e+002
9.883000e+002	6.780000e+002	6.915161e+002	7.175467e+002	6.903554e+002	7.187074e+002		4.983000e+002	2.712000e+002	2.766064e+002	2.870187e+002	2.761422e+002	2.874830e+002
9.883500e+002	7.070000e+002	6.909667e+002	7.191563e+002	6.897948e+002	7.203283e+002		4.982500e+002	2.828000e+002	2.763867e+002	2.876625e+002	2.759179e+002	2.881313e+002
9.884000e+002	6.920000e+002	6.904155e+002	7.210950e+002	6.892322e+002	7.222783e+002		4.982000e+002	2.768000e+002	2.761662e+002	2.884380e+002	2.756929e+002	2.889113e+002
9.884500e+002	7.040000e+002	6.898624e+002	7.234551e+002	6.886675e+002	7.246500e+002		4.981500e+002	2.816000e+002	2.759450e+002	2.893821e+002	2.754670e+002	2.898600e+002
9.885000e+002	7.380000e+002	6.893074e+002	7.262698e+002	6.881008e+002	7.274764e+002		4.981000e+002	2.952000e+002	2.757230e+002	2.905079e+002	2.752403e+002	2.909905e+002
9.885500e+002	7.370000e+002	6.887510e+002	7.296204e+002	6.875325e+002	7.308389e+002		4.980500e+002	2.948000e+002	2.755004e+002	2.918482e+002	2.750130e+002	2.923356e+002
9.886000e+002	6.890000e+002	6.881930e+002	7.336003e+002	6.869625e+002	7.348308e+002		4.980000e+002	2.756000e+002	2.752772e+002	2.934401e+002	2.747850e+002	2.939323e+002
9.886500e+002	7.220000e+002	6.876331e+002	7.383149e+002	6.863903e+002	7.395577e+002		4.979500e+002	2.888000e+002	2.750532e+002	2.953260e+002	2.745561e+002	2.958231e+002
9.887000e+002	7.160000e+002	6.870716e+002	7.438843e+002	6.858164e+002	7.451395e+002		4.979000e+002	2.864000e+002	2.748286e+002	2.975537e+002	2.743266e+002	2.980558e+002
9.887500e+002	7.180000e+002	6.865085e+002	7.504961e+002	6.852407e+002	7.517639e+002		4.978500e+002	2.872000e+002	2.746034e+002	3.001984e+002	2.740963e+002	3.007056e+002
9.888000e+002	7.440000e+002	6.859438e+002	7.584757e+002	6.846631e+002	7.597563e+002		4.978000e+002	2.976000e+002	2.743775e+002	3.033903e+002	2.738653e+002	3.039025e+002
9.888500e+002	7.610000e+002	6.853777e+002	7.678521e+002	6.840840e+002	7.691457e+002		4.977500e+002	3.044000e+002	2.741511e+002	3.071408e+002	2.736336e+002	3.076583e+002
9.889000e+002	8.050000e+002	6.848104e+002	7.788170e+002	6.835036e+002	7.801239e+002		4.977000e+002	3.220000e+002	2.739242e+002	3.115268e+002	2.734014e+002	3.120495e+002
9.889500e+002	7.850000e+002	6.842424e+002	7.915744e+002	6.829221e+002	7.928947e+002		4.976500e+002	3.140000e+002	2.736969e+002	3.166298e+002	2.731689e+002	3.171579e+002
9.890000e+002	8.280000e+002	6.836734e+002	8.063370e+002	6.823395e+002	8.076709e+002		4.976000e+002	3.312000e+002	2.734694e+002	3.225348e+002	2.729358e+002	3.230683e+002
9.890500e+002	9.050000e+002	6.831039e+002	8.233249e+002	6.817562e+002	8.246726e+002		4.975500e+002	3.620000e+002	2.732415e+002	3.293300e+002	2.727025e+002	3.298690e+002
9.891000e+002	8.750000e+002	6.825346e+002	8.428065e+002	6.811729e+002	8.441682e+002		4.975000e+002	3.500000e+002	2.730138e+002	3.371226e+002	2.724691e+002	3.376673e+002
9.891500e+002	8.720000e+002	6.819652e+002	8.654976e+002	6.805892e+002	8.668736e+002		4.974500e+002	3.488000e+002	2.727861e+002	3.461990e+002	2.722357e+002	3.467494e+002
9.892000e+002	8.870000e+002	6.813957e+002	8.911616e+002	6.800053e+002	8.925521e+002		4.974000e+002	3.548000e+002	2.725583e+002	3.564646e+002	2.720021e+002	3.570208e+002
9.892500e+002	9.050000e+002	6.808263e+002	9.199747e+002	6.794212e+002	9.213799e+002		4.973500e+002	3.620000e+002	2.723305e+002	3.679899e+002	2.717685e+002	3.685519e+002
9.893000e+002	9.420000e+002	6.802572e+002	9.520813e+002	6.788371e+002	9.535015e+002		4.973000e+002	3.768000e+002	2.721029e+002	3.808325e+002	2.715348e+002	3.814006e+002
9.893500e+002	1.009000e+003	6.796887e+002	9.875865e+002	6.782533e+002	9.890218e+002		4.972500e+002	4.036000e+002	2.718755e+002	3.950346e+002	2.713013e+002	3.956087e+002
9.894000e+002	1.029000e+003	6.791214e+002	1.026548e+003	6.776706e+002	1.027998e+003		4.972000e+002	4.116000e+002	2.716485e+002	4.106191e+002	2.710682e+002	4.111994e+002
9.894500e+002	1.054000e+003	6.785555e+002	1.068966e+003	6.770891e+002	1.070433e+003		4.971500e+002	4.216000e+002	2.714222e+002	4.275865e+002	2.708356e+002	4.281730e+002
9.895000e+002	1.116000e+003	6.779914e+002	1.115347e+003	6.765089e+002	1.116830e+003		4.971000e+002	4.464000e+002	2.711965e+002	4.461390e+002	2.706036e+002	4.467320e+002
9.895500e+002	1.148000e+003	6.774294e+002	1.164889e+003	6.759308e+002	1.166387e+003		4.970500e+002	4.592000e+002	2.709718e+002	4.659555e+002	2.703723e+002	4.665550e+002
9.896000e+002	1.195000e+003	6.768701e+002	1.217251e+003	6.753550e+002	1.218766e+003		4.970000e+002	4.780000e+002	2.707480e+002	4.869003e+002	2.701420e+002	4.875064e+002
9.896500e+002	1.240000e+003	6.763137e+002	1.272047e+003	6.747818e+002	1.273578e+003		4.969500e+002	4.960000e+002	2.705255e+002	5.088186e+002	2.699127e+002	5.094314e+002
9.897000e+002	1.335000e+003	6.757608e+002	1.328801e+003	6.742119e+002	1.330350e+003		4.969000e+002	5.340000e+002	2.703043e+002	5.315205e+002	2.696848e+002	5.321401e+002
9.897500e+002	1.410000e+003	6.752122e+002	1.386954e+003	6.736460e+002	1.388520e+003		4.968500e+002	5.640000e+002	2.700849e+002	5.547816e+002	2.694584e+002	5.554081e+002
9.898000e+002	1.454000e+003	6.746686e+002	1.445861e+003	6.730847e+002	1.447445e+003		4.968000e+002	5.816000e+002	2.698674e+002	5.783443e+002	2.692339e+002	5.789778e+002
9.898500e+002	1.549000e+003	6.741304e+002	1.504624e+003	6.725286e+002	1.506226e+003		4.967500e+002	6.196000e+002	2.696522e+002	6.018497e+002	2.690115e+002	6.024904e+002
9.899000e+002	1.544000e+003	6.735986e+002	1.562207e+003	6.719785e+002	1.563827e+003		4.967000e+002	6.176000e+002	2.694394e+002	6.248828e+002	2.687914e+002	6.255308e+002
9.899500e+002	1.655000e+003	6.730730e+002	1.617745e+003	6.714344e+002	1.619383e+003		4.966500e+002	6.620000e+002	2.692292e+002	6.470979e+002	2.685738e+002	6.477533e+002
9.900000e+002	1.649000e+003	6.725547e+002	1.670355e+003	6.708973e+002	1.672012e+003		4.966000e+002	6.596000e+002	2.690219e+002	6.681419e+002	2.683589e+002	6.688049e+002
9.900500e+002	1.745000e+003	6.720436e+002	1.719157e+003	6.703670e+002	1.720834e+003		4.965500e+002	6.980000e+002	2.688175e+002	6.876629e+002	2.681468e+002	6.883336e+002
9.901000e+002	1.831000e+003	6.715407e+002	1.763297e+003	6.698446e+002	1.764993e+003		4.965000e+002	7.324000e+002	2.686163e+002	7.053188e+002	2.679379e+002	7.059972e+002
9.901500e+002	1.832000e+003	6.710468e+002	1.801960e+003	6.693308e+002	1.803676e+003		4.964500e+002	7.328000e+002	2.684187e+002	7.207840e+002	2.677323e+002	7.214704e+002
9.902000e+002	1.895000e+003	6.705618e+002	1.833508e+003	6.688256e+002	1.835244e+003		4.964000e+002	7.580000e+002	2.682247e+002	7.334032e+002	2.675303e+002	7.340977e+002
9.902500e+002	1.845000e+003	6.700865e+002	1.857481e+003	6.683297e+002	1.859238e+003		4.963500e+002	7.380000e+002	2.680346e+002	7.429926e+002	2.673319e+002	7.436953e+002
9.903000e+002	1.888000e+003	6.696202e+002	1.873872e+003	6.678425e+002	1.875650e+003		4.963000e+002	7.552000e+002	2.678481e+002	7.495490e+002	2.671370e+002	7.502601e+002
9.903500e+002	1.967000e+003	6.691635e+002	1.882369e+003	6.673644e+002	1.884168e+003		4.962500e+002	7.868000e+002	2.676654e+002	7.529477e+002	2.669458e+002	7.536673e+002
9.904000e+002	1.857000e+003	6.687170e+002	1.882801e+003	6.668962e+002	1.884622e+003		4.962000e+002	7.428000e+002	2.674868e+002	7.531203e+002	2.667585e+002	7.538486e+002
9.904500e+002	1.858000e+003	6.682798e+002	1.875140e+003	6.664369e+002	1.876983e+003		4.961500e+002	7.432000e+002	2.673119e+002	7.500559e+002	2.665748e+002	7.507931e+002
9.905000e+002	1.870000e+003	6.678520e+002	1.859506e+003	6.659866e+002	1.861371e+003		4.961000e+002	7.480000e+002	2.671408e+002	7.438024e+002	2.663946e+002	7.445486e+002
9.905500e+002	1.791000e+003	6.674336e+002	1.835481e+003	6.655453e+002	1.837369e+003		4.960500e+002	7.164000e+002	2.669735e+002	7.341924e+002	2.662181e+002	7.349477e+002
9.906000e+002	1.831000e+003	6.670240e+002	1.803678e+003	6.651123e+002	1.805589e+003		4.960000e+002	7.324000e+002	2.668096e+002	7.214711e+002	2.660449e+002	7.222358e+002
9.906500e+002	1.724000e+003	6.666235e+002	1.765477e+003	6.646880e+002	1.767413e+003		4.959500e+002	6.896000e+002	2.666494e+002	7.061909e+002	2.658752e+002	7.069651e+002
9.907000e+002	1.742000e+003	6.662312e+002	1.721598e+003	6.642714e+002	1.723558e+003		4.959000e+002	6.968000e+002	2.664925e+002	6.886391e+002	2.657086e+002	6.894231e+002
9.907500e+002	1.678000e+003	6.658473e+002	1.672830e+003	6.638627e+002	1.674815e+003		4.958500e+002	6.712000e+002	2.663389e+002	6.691320e+002	2.655451e+002	6.699258e+002
9.908000e+002	1.613000e+003	6.654711e+002	1.620015e+003	6.634614e+002	1.622025e+003		4.958000e+002	6.452000e+002	2.661884e+002	6.480062e+002	2.653846e+002	6.488100e+002
9.908500e+002	1.630000e+003	6.651022e+002	1.564029e+003	6.630668e+002	1.566064e+003		4.957500e+002	6.520000e+002	2.660409e+002	6.256117e+002	2.652267e+002	6.264258e+002
9.909000e+002	1.548000e+003	6.647407e+002	1.505684e+003	6.626792e+002	1.507745e+003		4.957000e+002	6.192000e+002	2.658963e+002	6.022734e+002	2.650717e+002	6.030980e+002
9.909500e+002	1.482000e+003	6.643860e+002	1.446060e+003	6.622977e+002	1.448148e+003		4.956500e+002	5.928000e+002	2.657544e+002	5.784239e+002	2.649191e+002	5.792592e+002
9.910000e+002	1.472000e+003	6.640373e+002	1.386244e+003	6.619218e+002	1.388360e+003		4.956000e+002	5.888000e+002	2.656149e+002	5.544978e+002	2.647687e+002	5.553440e+002
9.910500e+002	1.341000e+003	6.636947e+002	1.326981e+003	6.615514e+002	1.329125e+003		4.955500e+002	5.364000e+002	2.654779e+002	5.307925e+002	2.646206e+002	5.316498e+002
9.911000e+002	1.314000e+003	6.633569e+002	1.268941e+003	6.611854e+002	1.271112e+003		4.955000e+002	5.256000e+002	2.653428e+002	5.075764e+002	2.644741e+002	5.084450e+002
9.911500e+002	1.360000e+003	6.630238e+002	1.212715e+003	6.608234e+002	1.214915e+003		4.954500e+002	5.440000e+002	2.652095e+002	4.850860e+002	2.643294e+002	4.859662e+002
9.912000e+002	1.189000e+003	6.626957e+002	1.158811e+003	6.604660e+002	1.161041e+003		4.954000e+002	4.756000e+002	2.650783e+002	4.635245e+002	2.641864e+002	4.644164e+002
9.912500e+002	1.110000e+003	6.623713e+002	1.107769e+003	6.601115e+002	1.110029e+003		4.953500e+002	4.440000e+002	2.649485e+002	4.431077e+002	2.640446e+002	4.440117e+002
9.913000e+002	1.030000e+003	6.620498e+002	1.060334e+003	6.597592e+002	1.062624e+003		4.953000e+002	4.120000e+002	2.648199e+002	4.241334e+002	2.639037e+002	4.250497e+002
9.913500e+002	9.940000e+002	6.617305e+002	1.016242e+003	6.594086e+002	1.018564e+003		4.952500e+002	3.976000e+002	2.646922e+002	4.064966e+002	2.637634e+002	4.074254e+002
9.914000e+002	8.900000e+002	6.614129e+002	9.755836e+002	6.590591e+002	9.779374e+002		4.952000e+002	3.560000e+002	2.645652e+002	3.902334e+002	2.636236e+002	3.911750e+002
9.914500e+002	9.360000e+002	6.610964e+002	9.383815e+002	6.587099e+002	9.407679e+002		4.951500e+002	3.744000e+002	2.644386e+002	3.753526e+002	2.634840e+002	3.763072e+002
9.915000e+002	8.280000e+002	6.607812e+002	9.045990e+002	6.583615e+002	9.070187e+002		4.951000e+002	3.312000e+002	2.643125e+002	3.618396e+002	2.633446e+002	3.628075e+002
9.915500e+002	8.390000e+002	6.604664e+002	8.741463e+002	6.580127e+002	8.766000e+002		4.950500e+002	3.356000e+002	2.641866e+002	3.496585e+002	2.632051e+002	3.506400e+002
9.916000e+002	8.110000e+002	6.601523e+002	8.469224e+002	6.576639e+002	8.494108e+002		4.950000e+002	3.244000e+002	2.640609e+002	3.387689e+002	2.630655e+002	3.397643e+002
9.916500e+002	7.770000e+002	6.598385e+002	8.232224e+002	6.573146e+002	8.257464e+002		4.949500e+002	3.108000e+002	2.639354e+002	3.292890e+002	2.629258e+002	3.302986e+002
9.917000e+002	7.960000e+002	6.595248e+002	8.022493e+002	6.569646e+002	8.048096e+002		4.949000e+002	3.184000e+002	2.638099e+002	3.208997e+002	2.627858e+002	3.219238e+002
9.917500e+002	7.950000e+002	6.592113e+002	7.837849e+002	6.566141e+002	7.863822e+002		4.948500e+002	3.180000e+002	2.636845e+002	3.135139e+002	2.626456e+002	3.145529e+002
9.918000e+002	7.430000e+002	6.588981e+002	7.676072e+002	6.562630e+002	7.702423e+002		4.948000e+002	2.972000e+002	2.635593e+002	3.070429e+002	2.625052e+002	3.080969e+002
9.918500e+002	6.960000e+002	6.585847e+002	7.534949e+002	6.559109e+002	7.561687e+002		4.947500e+002	2.784000e+002	2.634339e+002	3.013979e+002	2.623644e+002	3.024675e+002
9.919000e+002	7.020000e+002	6.582708e+002	7.412316e+002	6.555575e+002	7.439449e+002		4.947000e+002	2.808000e+002	2.633083e+002	2.964927e+002	2.622230e+002	2.975780e+002
9.919500e+002	7.170000e+002	6.579564e+002	7.306099e+002	6.552027e+002	7.333637e+002		4.946500e+002	2.868000e+002	2.631826e+002	2.922440e+002	2.620811e+002	2.933455e+002
9.920000e+002	7.040000e+002	6.576418e+002	7.216432e+002	6.548466e+002	7.244384e+002		4.946000e+002	2.816000e+002	2.630567e+002	2.886573e+002	2.619386e+002	2.897754e+002
9.920500e+002	6.340000e+002	6.573268e+002	7.138883e+002	6.544893e+002	7.167258e+002		4.945500e+002	2.536000e+002	2.629307e+002	2.855553e+002	2.617957e+002	2.866903e+002
9.921000e+002	6.230000e+002	6.570108e+002	7.071646e+002	6.541300e+002	7.100455e+002		4.945000e+002	2.492000e+002	2.628043e+002	2.828658e+002	2.616520e+002	2.840182e+002
9.921500e+002	6.640000e+002	6.566937e+002	7.013326e+002	6.537686e+002	7.042577e+002		4.944500e+002	2.656000e+002	2.626775e+002	2.805330e+002	2.615074e+002	2.817031e+002
9.922000e+002	6.810000e+002	6.563760e+002	6.962677e+002	6.534056e+002	6.992381e+002		4.944000e+002	2.724000e+002	2.625504e+002	2.785071e+002	2.613622e+002	2.796953e+002
9.922500e+002	6.600000e+002	6.560578e+002	6.918592e+002	6.530411e+002	6.948759e+002		4.943500e+002	2.640000e+002	2.624231e+002	2.767437e+002	2.612164e+002	2.779504e+002
9.923000e+002	6.480000e+002	6.557391e+002	6.880093e+002	6.526749e+002	6.910735e+002		4.943000e+002	2.592000e+002	2.622956e+002	2.752037e+002	2.610699e+002	2.764294e+002
9.923500e+002	6.220000e+002	6.554198e+002	6.846887e+002	6.523069e+002	6.878016e+002		4.942500e+002	2.488000e+002	2.621679e+002	2.738755e+002	2.609227e+002	2.751207e+002
9.924000e+002	6.520000e+002	6.550997e+002	6.817616e+002	6.519368e+002	6.849245e+002		4.942000e+002	2.608000e+002	2.620399e+002	2.727046e+002	2.607747e+002	2.739698e+002
9.924500e+002	6.420000e+002	6.547790e+002	6.791514e+002	6.515651e+002	6.823654e+002		4.941500e+002	2.568000e+002	2.619116e+002	2.716606e+002	2.606260e+002	2.729461e+002
9.925000e+002	6.260000e+002	6.544577e+002	6.768104e+002	6.511915e+002	6.800766e+002		4.941000e+002	2.504000e+002	2.617831e+002	2.707242e+002	2.604766e+002	2.720306e+002
9.925500e+002	6.480000e+002	6.541357e+002	6.746975e+002	6.508160e+002	6.780173e+002		4.940500e+002	2.592000e+002	2.616543e+002	2.698790e+002	2.603264e+002	2.712069e+002
9.926000e+002	6.370000e+002	6.538133e+002	6.727783e+002	6.504387e+002	6.761529e+002		4.940000e+002	2.548000e+002	2.615253e+002	2.691113e+002	2.601755e+002	2.704612e+002
9.926500e+002	5.920000e+002	6.534905e+002	6.710230e+002	6.500596e+002	6.744538e+002		4.939500e+002	2.368000e+002	2.613962e+002	2.684092e+002	2.600238e+002	2.697815e+002
9.927000e+002	6.490000e+002	6.531670e+002	6.694200e+002	6.496782e+002	6.729087e+002		4.939000e+002	2.596000e+002	2.612668e+002	2.677680e+002	2.598713e+002	2.691635e+002
9.927500e+002	6.180000e+002	6.528432e+002	6.679405e+002	6.492952e+002	6.714886e+002		4.938500e+002	2.472000e+002	2.611373e+002	2.671762e+002	2.597181e+002	2.685954e+002
9.928000e+002	5.920000e+002	6.525190e+002	6.665620e+002	6.489101e+002	6.701709e+002		4.938000e+002	2.368000e+002	2.610076e+002	2.666248e+002	2.595640e+002	2.680683e+002
9.928500e+002	6.280000e+002	6.521941e+002	6.652718e+002	6.485228e+002	6.689430e+002		4.937500e+002	2.512000e+002	2.608776e+002	2.661087e+002	2.594091e+002	2.675772e+002
9.929000e+002	6.020000e+002	6.518689e+002	6.640584e+002	6.481337e+002	6.677936e+002		4.937000e+002	2.408000e+002	2.607476e+002	2.656234e+002	2.592535e+002	2.671174e+002
9.929500e+002	6.220000e+002	6.515433e+002	6.629107e+002	6.477425e+002	6.667115e+002		4.936500e+002	2.488000e+002	2.606173e+002	2.651643e+002	2.590970e+002	2.666846e+002
9.930000e+002	6.480000e+002	6.512175e+002	6.618200e+002	6.473493e+002	6.656881e+002		4.936000e+002	2.592000e+002	2.604870e+002	2.647280e+002	2.589397e+002	2.662753e+002
9.930500e+002	6.700000e+002	6.508921e+002	6.607834e+002	6.469545e+002	6.647210e+002		4.935500e+002	2.680000e+002	2.603568e+002	2.643134e+002	2.587818e+002	2.658884e+002
9.931000e+002	5.970000e+002	6.505671e+002	6.597944e+002	6.465582e+002	6.638034e+002		4.935000e+002	2.388000e+002	2.602269e+002	2.639178e+002	2.586233e+002	2.655213e+002
9.931500e+002	6.160000e+002	6.502420e+002	6.588428e+002	6.461598e+002	6.629250e+002		4.934500e+002	2.464000e+002	2.600968e+002	2.635371e+002	2.584639e+002	2.651700e+002
9.932000e+002	6.090000e+002	6.499169e+002	6.579250e+002	6.457595e+002	6.620824e+002		4.934000e+002	2.436000e+002	2.599668e+002	2.631700e+002	2.583038e+002	2.648330e+002
9.932500e+002	6.300000e+002	6.495919e+002	6.570378e+002	6.453572e+002	6.612725e+002		4.933500e+002	2.520000e+002	2.598368e+002	2.628151e+002	2.581429e+002	2.645090e+002
9.933000e+002	6.070000e+002	6.492673e+002	6.561785e+002	6.449531e+002	6.604926e+002		4.933000e+002	2.428000e+002	2.597069e+002	2.624714e+002	2.579813e+002	2.641971e+002
9.933500e+002	6.230000e+002	6.489429e+002	6.553444e+002	6.445471e+002	6.597402e+002		4.932500e+002	2.492000e+002	2.595771e+002	2.621378e+002	2.578188e+002	2.638961e+002
9.934000e+002	5.620000e+002	6.486194e+002	6.545349e+002	6.441392e+002	6.590150e+002		4.932000e+002	2.248000e+002	2.594478e+002	2.618139e+002	2.576557e+002	2.636060e+002
9.934500e+002	6.570000e+002	6.482963e+002	6.537486e+002	6.437293e+002	6.583156e+002		4.931500e+002	2.628000e+002	2.593185e+002	2.614995e+002	2.574917e+002	2.633263e+002
9.935000e+002	6.150000e+002	6.479742e+002	6.529814e+002	6.433179e+002	6.576377e+002		4.931000e+002	2.460000e+002	2.591897e+002	2.611926e+002	2.573271e+002	2.630551e+002
9.935500e+002	6.010000e+002	6.476529e+002	6.522313e+002	6.429046e+002	6.569796e+002		4.930500e+002	2.404000e+002	2.590611e+002	2.608925e+002	2.571618e+002	2.627918e+002
9.936000e+002	6.530000e+002	6.473323e+002	6.514969e+002	6.424893e+002	6.563398e+002		4.930000e+002	2.612000e+002	2.589329e+002	2.605987e+002	2.569957e+002	2.625359e+002
9.936500e+002	6.040000e+002	6.470130e+002	6.507774e+002	6.420726e+002	6.557178e+002		4.929500e+002	2.416000e+002	2.588052e+002	2.603109e+002	2.568290e+002	2.622871e+002
9.937000e+002	6.020000e+002	6.466947e+002	6.500712e+002	6.416539e+002	6.551121e+002		4.929000e+002	2.408000e+002	2.586779e+002	2.600285e+002	2.566616e+002	2.620448e+002
9.937500e+002	6.050000e+002	6.463781e+002	6.493779e+002	6.412333e+002	6.545227e+002		4.928500e+002	2.420000e+002	2.585512e+002	2.597511e+002	2.564933e+002	2.618091e+002
9.938000e+002	6.680000e+002	6.460629e+002	6.486978e+002	6.408108e+002	6.539499e+002		4.928000e+002	2.672000e+002	2.584252e+002	2.594791e+002	2.563243e+002	2.615800e+002
9.938500e+002	6.380000e+002	6.457497e+002	6.480285e+002	6.403870e+002	6.533912e+002		4.927500e+002	2.552000e+002	2.582999e+002	2.592114e+002	2.561548e+002	2.613565e+002
9.939000e+002	6.080000e+002	6.454385e+002	6.473691e+002	6.399617e+002	6.528459e+002		4.927000e+002	2.432000e+002	2.581754e+002	2.589476e+002	2.559847e+002	2.611384e+002
9.939500e+002	6.140000e+002	6.451291e+002	6.467185e+002	6.395345e+002	6.523130e+002		4.926500e+002	2.456000e+002	2.580516e+002	2.586874e+002	2.558138e+002	2.609252e+002
9.940000e+002	5.570000e+002	6.448217e+002	6.460761e+002	6.391056e+002	6.517922e+002		4.926000e+002	2.228000e+002	2.579287e+002	2.584304e+002	2.556422e+002	2.607169e+002
9.940500e+002	6.380000e+002	6.445163e+002	6.454413e+002	6.386747e+002	6.512828e+002		4.925500e+002	2.552000e+002	2.578065e+002	2.581765e+002	2.554699e+002	2.605131e+002
9.941000e+002	6.280000e+002	6.442141e+002	6.448138e+002	6.382424e+002	6.507856e+002		4.925000e+002	2.512000e+002	2.576857e+002	2.579255e+002	2.552970e+002	2.603142e+002
9.941500e+002	6.270000e+002	6.439150e+002	6.441946e+002	6.378084e+002	6.503012e+002		4.924500e+002	2.508000e+002	2.575660e+002	2.576779e+002	2.551234e+002	2.601205e+002
9.942000e+002	6.200000e+002	6.436189e+002	6.435816e+002	6.373729e+002	6.498275e+002		4.924000e+002	2.480000e+002	2.574476e+002	2.574326e+002	2.549492e+002	2.599310e+002
9.942500e+002	6.280000e+002	6.433259e+002	6.429742e+002	6.369358e+002	6.493643e+002		4.923500e+002	2.512000e+002	2.573304e+002	2.571897e+002	2.547743e+002	2.597457e+002
9.943000e+002	6.090000e+002	6.430364e+002	6.423722e+002	6.364971e+002	6.489114e+002		4.923000e+002	2.436000e+002	2.572146e+002	2.569489e+002	2.545988e+002	2.595646e+002
9.943500e+002	6.110000e+002	6.427504e+002	6.417749e+002	6.360567e+002	6.484686e+002		4.922500e+002	2.444000e+002	2.571002e+002	2.567100e+002	2.544227e+002	2.593875e+002
9.944000e+002	6.050000e+002	6.424682e+002	6.411823e+002	6.356147e+002	6.480358e+002		4.922000e+002	2.420000e+002	2.569873e+002	2.564729e+002	2.542459e+002	2.592143e+002
9.944500e+002	6.350000e+002	6.421907e+002	6.405938e+002	6.351709e+002	6.476135e+002		4.921500e+002	2.540000e+002	2.568763e+002	2.562375e+002	2.540684e+002	2.590454e+002
9.945000e+002	6.100000e+002	6.419184e+002	6.400103e+002	6.347257e+002	6.472029e+002		4.921000e+002	2.440000e+002	2.567673e+002	2.560041e+002	2.538903e+002	2.588812e+002
9.945500e+002	6.670000e+002	6.416509e+002	6.394305e+002	6.342789e+002	6.468024e+002		4.920500e+002	2.668000e+002	2.566603e+002	2.557722e+002	2.537116e+002	2.587210e+002
9.946000e+002	5.980000e+002	6.413890e+002	6.388545e+002	6.338310e+002	6.464125e+002		4.920000e+002	2.392000e+002	2.565556e+002	2.555418e+002	2.535324e+002	2.585650e+002
9.946500e+002	6.480000e+002	6.411326e+002	6.382815e+002	6.333814e+002	6.460327e+002		4.919500e+002	2.592000e+002	2.564530e+002	2.553126e+002	2.533526e+002	2.584131e+002
9.947000e+002	5.840000e+002	6.408823e+002	6.377118e+002	6.329306e+002	6.456635e+002		4.919000e+002	2.336000e+002	2.563529e+002	2.550847e+002	2.531722e+002	2.582654e+002
9.947500e+002	6.380000e+002	6.406382e+002	6.371445e+002	6.324780e+002	6.453047e+002		4.918500e+002	2.552000e+002	2.562553e+002	2.548578e+002	2.529912e+002	2.581219e+002
9.948000e+002	5.340000e+002	6.404016e+002	6.365800e+002	6.320241e+002	6.449575e+002		4.918000e+002	2.136000e+002	2.561606e+002	2.546320e+002	2.528096e+002	2.579830e+002
9.948500e+002	6.390000e+002	6.401732e+002	6.360182e+002	6.315685e+002	6.446230e+002		4.917500e+002	2.556000e+002	2.560693e+002	2.544073e+002	2.526274e+002	2.578492e+002
9.949000e+002	5.900000e+002	6.399530e+002	6.354590e+002	6.311117e+002	6.443003e+002		4.917000e+002	2.360000e+002	2.559812e+002	2.541836e+002	2.524447e+002	2.577201e+002
9.949500e+002	6.010000e+002	6.397410e+002	6.349016e+002	6.306532e+002	6.439893e+002		4.916500e+002	2.404000e+002	2.558964e+002	2.539606e+002	2.522613e+002	2.575957e+002
9.950000e+002	6.650000e+002	6.395379e+002	6.343459e+002	6.301932e+002	6.436906e+002		4.916000e+002	2.660000e+002	2.558151e+002	2.537384e+002	2.520773e+002	2.574762e+002
9.950500e+002	6.540000e+002	6.393448e+002	6.337924e+002	6.297322e+002	6.434050e+002		4.915500e+002	2.616000e+002	2.557379e+002	2.535170e+002	2.518929e+002	2.573620e+002
9.951000e+002	6.300000e+002	6.391624e+002	6.332409e+002	6.292701e+002	6.431331e+002		4.915000e+002	2.520000e+002	2.556649e+002	2.532963e+002	2.517080e+002	2.572533e+002
9.951500e+002	6.380000e+002	6.389917e+002	6.326910e+002	6.288068e+002	6.428759e+002		4.914500e+002	2.552000e+002	2.555967e+002	2.530764e+002	2.515227e+002	2.571503e+002
9.952000e+002	6.540000e+002	6.388351e+002	6.321430e+002	6.283423e+002	6.426358e+002		4.914000e+002	2.616000e+002	2.555340e+002	2.528572e+002	2.513369e+002	2.570543e+002
9.952500e+002	5.780000e+002	6.386918e+002	6.315969e+002	6.278768e+002	6.424119e+002		4.913500e+002	2.312000e+002	2.554767e+002	2.526388e+002	2.511507e+002	2.569647e+002
9.953000e+002	6.230000e+002	6.385622e+002	6.310517e+002	6.274098e+002	6.422041e+002		4.913000e+002	2.492000e+002	2.554249e+002	2.524207e+002	2.509639e+002	2.568816e+002
9.953500e+002	6.430000e+002	6.384475e+002	6.305077e+002	6.269415e+002	6.420137e+002		4.912500e+002	2.572000e+002	2.553790e+002	2.522031e+002	2.507766e+002	2.568055e+002
9.954000e+002	5.460000e+002	6.383490e+002	6.299650e+002	6.264722e+002	6.418417e+002		4.912000e+002	2.184000e+002	2.553396e+002	2.519860e+002	2.505889e+002	2.567367e+002
9.954500e+002	5.920000e+002	6.382674e+002	6.294229e+002	6.260014e+002	6.416889e+002		4.911500e+002	2.368000e+002	2.553069e+002	2.517692e+002	2.504006e+002	2.566756e+002
9.955000e+002	5.780000e+002	6.382042e+002	6.288816e+002	6.255291e+002	6.415567e+002		4.911000e+002	2.312000e+002	2.552817e+002	2.515526e+002	2.502116e+002	2.566227e+002
9.955500e+002	5.970000e+002	6.381648e+002	6.283410e+002	6.250554e+002	6.414504e+002		4.910500e+002	2.388000e+002	2.552659e+002	2.513364e+002	2.500222e+002	2.565801e+002
9.956000e+002	5.800000e+002	6.381471e+002	6.278012e+002	6.245803e+002	6.413680e+002		4.910000e+002	2.320000e+002	2.552588e+002	2.511205e+002	2.498321e+002	2.565472e+002
9.956500e+002	5.830000e+002	6.381530e+002	6.272618e+002	6.241038e+002	6.413110e+002		4.909500e+002	2.332000e+002	2.552612e+002	2.509047e+002	2.496415e+002	2.565244e+002
9.957000e+002	5.970000e+002	6.381843e+002	6.267229e+002	6.236259e+002	6.412813e+002		4.909000e+002	2.388000e+002	2.552737e+002	2.506891e+002	2.494503e+002	2.565125e+002
9.957500e+002	5.760000e+002	6.382431e+002	6.261843e+002	6.231466e+002	6.412808e+002		4.908500e+002	2.304000e+002	2.552972e+002	2.504737e+002	2.492586e+002	2.565123e+002
9.958000e+002	5.820000e+002	6.383318e+002	6.256460e+002	6.226660e+002	6.413118e+002		4.908000e+002	2.328000e+002	2.553327e+002	2.502584e+002	2.490664e+002	2.565247e+002
9.958500e+002	6.090000e+002	6.384528e+002	6.251080e+002	6.221841e+002	6.413767e+002		4.907500e+002	2.436000e+002	2.553811e+002	2.500432e+002	2.488736e+002	2.565507e+002
9.959000e+002	5.940000e+002	6.386166e+002	6.245705e+002	6.217010e+002	6.414862e+002		4.907000e+002	2.376000e+002	2.554467e+002	2.498282e+002	2.486804e+002	2.565945e+002
9.959500e+002	5.590000e+002	6.388210e+002	6.240334e+002	6.212166e+002	6.416378e+002		4.906500e+002	2.236000e+002	2.555284e+002	2.496134e+002	2.484866e+002	2.566551e+002
9.960000e+002	6.290000e+002	6.390694e+002	6.234964e+002	6.207309e+002	6.418348e+002		4.906000e+002	2.516000e+002	2.556277e+002	2.493986e+002	2.482924e+002	2.567339e+002
9.960500e+002	6.070000e+002	6.393664e+002	6.229599e+002	6.202443e+002	6.420819e+002		4.905500e+002	2.428000e+002	2.557466e+002	2.491839e+002	2.480977e+002	2.568328e+002
9.961000e+002	6.220000e+002	6.397169e+002	6.224235e+002	6.197566e+002	6.423838e+002		4.905000e+002	2.488000e+002	2.558868e+002	2.489694e+002	2.479027e+002	2.569535e+002
9.961500e+002	6.120000e+002	6.401269e+002	6.218875e+002	6.192680e+002	6.427464e+002		4.904500e+002	2.448000e+002	2.560508e+002	2.487550e+002	2.477072e+002	2.570986e+002
9.962000e+002	6.090000e+002	6.406029e+002	6.213517e+002	6.187783e+002	6.431763e+002		4.904000e+002	2.436000e+002	2.562412e+002	2.485407e+002	2.475113e+002	2.572705e+002
9.962500e+002	6.440000e+002	6.411665e+002	6.208161e+002	6.182876e+002	6.436949e+002		4.903500e+002	2.576000e+002	2.564666e+002	2.483264e+002	2.473151e+002	2.574780e+002
9.963000e+002	6.190000e+002	6.418227e+002	6.202812e+002	6.177963e+002	6.443076e+002		4.903000e+002	2.476000e+002	2.567291e+002	2.481125e+002	2.471185e+002	2.577230e+002
9.963500e+002	6.450000e+002	6.425822e+002	6.197464e+002	6.173040e+002	6.450246e+002		4.902500e+002	2.580000e+002	2.570329e+002	2.478986e+002	2.469216e+002	2.580098e+002
9.964000e+002	6.030000e+002	6.434620e+002	6.192121e+002	6.168111e+002	6.458630e+002		4.902000e+002	2.412000e+002	2.573848e+002	2.476848e+002	2.467244e+002	2.583452e+002
9.964500e+002	6.390000e+002	6.444801e+002	6.186778e+002	6.163172e+002	6.468407e+002		4.901500e+002	2.556000e+002	2.577920e+002	2.474711e+002	2.465269e+002	2.587363e+002
9.965000e+002	5.910000e+002	6.456552e+002	6.181438e+002	6.158226e+002	6.479763e+002		4.901000e+002	2.364000e+002	2.582621e+002	2.472575e+002	2.463291e+002	2.591905e+002
9.965500e+002	6.060000e+002	6.470061e+002	6.176098e+002	6.153270e+002	6.492888e+002		4.900500e+002	2.424000e+002	2.588024e+002	2.470439e+002	2.461308e+002	2.597155e+002
9.966000e+002	6.520000e+002	6.485894e+002	6.170757e+002	6.148305e+002	6.508347e+002		4.900000e+002	2.608000e+002	2.594358e+002	2.468303e+002	2.459322e+002	2.603339e+002
9.966500e+002	6.410000e+002	6.504415e+002	6.165423e+002	6.143335e+002	6.526503e+002		4.899500e+002	2.564000e+002	2.601766e+002	2.466169e+002	2.457334e+002	2.610601e+002
9.967000e+002	5.880000e+002	6.525941e+002	6.160092e+002	6.138360e+002	6.547674e+002		4.899000e+002	2.352000e+002	2.610377e+002	2.464037e+002	2.455344e+002	2.619069e+002
9.967500e+002	6.140000e+002	6.551009e+002	6.154760e+002	6.133375e+002	6.572394e+002		4.898500e+002	2.456000e+002	2.620404e+002	2.461904e+002	2.453350e+002	2.628958e+002
9.968000e+002	6.060000e+002	6.580256e+002	6.149428e+002	6.128382e+002	6.601301e+002		4.898000e+002	2.424000e+002	2.632102e+002	2.459771e+002	2.451353e+002	2.640521e+002
9.968500e+002	5.930000e+002	6.614423e+002	6.144096e+002	6.123382e+002	6.635138e+002		4.897500e+002	2.372000e+002	2.645769e+002	2.457638e+002	2.449353e+002	2.654055e+002
9.969000e+002	6.520000e+002	6.654374e+002	6.138762e+002	6.118372e+002	6.674765e+002		4.897000e+002	2.608000e+002	2.661750e+002	2.455505e+002	2.447349e+002	2.669906e+002
9.969500e+002	6.270000e+002	6.701940e+002	6.133433e+002	6.113359e+002	6.722014e+002		4.896500e+002	2.508000e+002	2.680776e+002	2.453373e+002	2.445344e+002	2.688806e+002
9.970000e+002	6.710000e+002	6.758797e+002	6.128107e+002	6.108341e+002	6.778563e+002		4.896000e+002	2.684000e+002	2.703519e+002	2.451243e+002	2.443336e+002	2.711425e+002
9.970500e+002	6.360000e+002	6.825783e+002	6.122786e+002	6.103321e+002	6.845248e+002		4.895500e+002	2.544000e+002	2.730313e+002	2.449114e+002	2.441328e+002	2.738099e+002
9.971000e+002	7.200000e+002	6.904607e+002	6.117468e+002	6.098297e+002	6.923777e+002		4.895000e+002	2.880000e+002	2.761843e+002	2.446987e+002	2.439319e+002	2.769511e+002
9.971500e+002	7.140000e+002	6.997200e+002	6.112160e+002	6.093277e+002	7.016083e+002		4.894500e+002	2.856000e+002	2.798880e+002	2.444864e+002	2.437311e+002	2.806433e+002
9.972000e+002	7.320000e+002	7.105708e+002	6.106862e+002	6.088260e+002	7.124310e+002		4.894000e+002	2.928000e+002	2.842283e+002	2.442745e+002	2.435304e+002	2.849724e+002
9.972500e+002	7.210000e+002	7.232502e+002	6.101575e+002	6.083249e+002	7.250828e+002		4.893500e+002	2.884000e+002	2.893001e+002	2.440630e+002	2.433299e+002	2.900331e+002
9.973000e+002	7.470000e+002	7.381880e+002	6.096298e+002	6.078241e+002	7.399936e+002		4.893000e+002	2.988000e+002	2.952752e+002	2.438519e+002	2.431296e+002	2.959975e+002
9.973500e+002	7.490000e+002	7.559066e+002	6.091034e+002	6.073241e+002	7.576860e+002		4.892500e+002	2.996000e+002	3.023627e+002	2.436414e+002	2.429296e+002	3.030744e+002
9.974000e+002	8.100000e+002	7.764573e+002	6.085784e+002	6.068248e+002	7.782110e+002		4.892000e+002	3.240000e+002	3.105829e+002	2.434314e+002	2.427299e+002	3.112844e+002
9.974500e+002	7.970000e+002	8.001672e+002	6.080553e+002	6.063267e+002	8.018957e+002		4.891500e+002	3.188000e+002	3.200669e+002	2.432221e+002	2.425307e+002	3.207583e+002
9.975000e+002	8.000000e+002	8.273688e+002	6.075339e+002	6.058300e+002	8.290727e+002		4.891000e+002	3.200000e+002	3.309475e+002	2.430135e+002	2.423320e+002	3.316291e+002
9.975500e+002	8.420000e+002	8.583937e+002	6.070142e+002	6.053344e+002	8.600734e+002		4.890500e+002	3.368000e+002	3.433575e+002	2.428057e+002	2.421338e+002	3.440294e+002
9.976000e+002	9.140000e+002	8.935658e+002	6.064967e+002	6.048406e+002	8.952220e+002		4.890000e+002	3.656000e+002	3.574263e+002	2.425987e+002	2.419362e+002	3.580888e+002
9.976500e+002	9.330000e+002	9.333869e+002	6.059821e+002	6.043490e+002	9.350200e+002		4.889500e+002	3.732000e+002	3.733548e+002	2.423928e+002	2.417396e+002	3.740080e+002
9.977000e+002	9.700000e+002	9.787406e+002	6.054705e+002	6.038600e+002	9.803511e+002		4.889000e+002	3.880000e+002	3.914963e+002	2.421882e+002	2.415440e+002	3.921404e+002
9.977500e+002	1.069000e+003	1.029128e+003	6.049622e+002	6.033739e+002	1.030716e+003		4.888500e+002	4.276000e+002	4.116512e+002	2.419849e+002	2.413496e+002	4.122865e+002
9.978000e+002	1.068000e+003	1.084668e+003	6.044582e+002	6.028916e+002	1.086234e+003		4.888000e+002	4.272000e+002	4.338671e+002	2.417833e+002	2.411566e+002	4.344937e+002
9.978500e+002	1.106000e+003	1.145395e+003	6.039585e+002	6.024131e+002	1.146941e+003		4.887500e+002	4.424000e+002	4.581581e+002	2.415834e+002	2.409652e+002	4.587763e+002
9.979000e+002	1.255000e+003	1.211253e+003	6.034634e+002	6.019388e+002	1.212778e+003		4.887000e+002	5.020000e+002	4.845013e+002	2.413853e+002	2.407755e+002	4.851112e+002
9.979500e+002	1.300000e+003	1.282081e+003	6.029742e+002	6.014700e+002	1.283585e+003		4.886500e+002	5.200000e+002	5.128322e+002	2.411897e+002	2.405880e+002	5.134339e+002
9.980000e+002	1.395000e+003	1.357649e+003	6.024914e+002	6.010072e+002	1.359133e+003		4.886000e+002	5.580000e+002	5.430596e+002	2.409966e+002	2.404029e+002	5.436533e+002
9.980500e+002	1.466000e+003	1.438104e+003	6.020158e+002	6.005513e+002	1.439568e+003		4.885500e+002	5.864000e+002	5.752415e+002	2.408063e+002	2.402205e+002	5.758274e+002
9.981000e+002	1.531000e+003	1.521932e+003	6.015482e+002	6.001028e+002	1.523378e+003		4.885000e+002	6.124000e+002	6.087730e+002	2.406193e+002	2.400411e+002	6.093511e+002
9.981500e+002	1.672000e+003	1.608343e+003	6.010891e+002	5.996625e+002	1.609770e+003		4.884500e+002	6.688000e+002	6.433374e+002	2.404357e+002	2.398650e+002	6.439080e+002
9.982000e+002	1.706000e+003	1.696421e+003	6.006398e+002	5.992317e+002	1.697829e+003		4.884000e+002	6.824000e+002	6.785683e+002	2.402559e+002	2.396927e+002	6.791315e+002
9.982500e+002	1.827000e+003	1.785131e+003	6.002006e+002	5.988105e+002	1.786521e+003		4.883500e+002	7.308000e+002	7.140524e+002	2.400802e+002	2.395242e+002	7.146084e+002
9.983000e+002	1.851000e+003	1.873339e+003	5.997725e+002	5.984003e+002	1.874711e+003		4.883000e+002	7.404000e+002	7.493357e+002	2.399090e+002	2.393601e+002	7.498846e+002
9.983500e+002	1.954000e+003	1.959821e+003	5.993559e+002	5.980011e+002	1.961176e+003		4.882500e+002	7.816000e+002	7.839285e+002	2.397424e+002	2.392004e+002	7.844704e+002
9.984000e+002	2.023000e+003	2.042401e+003	5.989517e+002	5.976139e+002	2.043739e+003		4.882000e+002	8.092000e+002	8.169604e+002	2.395807e+002	2.390456e+002	8.174955e+002
9.984500e+002	2.157000e+003	2.119933e+003	5.985605e+002	5.972395e+002	2.121254e+003		4.881500e+002	8.628000e+002	8.479732e+002	2.394242e+002	2.388958e+002	8.485016e+002
9.985000e+002	2.146000e+003	2.191165e+003	5.981835e+002	5.968789e+002	2.192470e+003		4.881000e+002	8.584000e+002	8.764660e+002	2.392734e+002	2.387516e+002	8.769879e+002
9.985500e+002	2.245000e+003	2.254847e+003	5.978207e+002	5.965322e+002	2.256135e+003		4.880500e+002	8.980000e+002	9.019388e+002	2.391283e+002	2.386129e+002	9.024542e+002
9.986000e+002	2.326000e+003	2.309818e+003	5.974728e+002	5.962002e+002	2.311090e+003		4.880000e+002	9.304000e+002	9.239271e+002	2.389891e+002	2.384801e+002	9.244362e+002
9.986500e+002	2.359000e+003	2.355032e+003	5.971408e+002	5.958837e+002	2.356289e+003		4.879500e+002	9.436000e+002	9.420129e+002	2.388563e+002	2.383535e+002	9.425158e+002
9.987000e+002	2.395000e+003	2.389586e+003	5.968248e+002	5.955830e+002	2.390828e+003		4.879000e+002	9.580000e+002	9.558345e+002	2.387299e+002	2.382332e+002	9.563312e+002
9.987500e+002	2.372000e+003	2.410951e+003	5.965253e+002	5.952985e+002	2.412177e+003		4.878500e+002	9.488000e+002	9.643803e+002	2.386101e+002	2.381194e+002	9.648710e+002
9.988000e+002	2.350000e+003	2.419761e+003	5.962419e+002	5.950298e+002	2.420973e+003		4.878000e+002	9.400000e+002	9.679045e+002	2.384968e+002	2.380119e+002	9.683893e+002
9.988500e+002	2.377000e+003	2.416409e+003	5.959746e+002	5.947770e+002	2.417607e+003		4.877500e+002	9.508000e+002	9.665638e+002	2.383899e+002	2.379108e+002	9.670429e+002
9.989000e+002	2.331000e+003	2.400987e+003	5.957236e+002	5.945401e+002	2.402171e+003		4.877000e+002	9.324000e+002	9.603949e+002	2.382894e+002	2.378160e+002	9.608682e+002
9.989500e+002	2.314000e+003	2.373801e+003	5.954884e+002	5.943189e+002	2.374971e+003		4.876500e+002	9.256000e+002	9.495205e+002	2.381954e+002	2.377276e+002	9.499883e+002
9.990000e+002	2.322000e+003	2.335367e+003	5.952689e+002	5.941131e+002	2.336523e+003		4.876000e+002	9.288000e+002	9.341468e+002	2.381076e+002	2.376452e+002	9.346091e+002
9.990500e+002	2.259000e+003	2.286395e+003	5.950652e+002	5.939229e+002	2.287537e+003		4.875500e+002	9.036000e+002	9.145579e+002	2.380261e+002	2.375691e+002	9.150149e+002
9.991000e+002	2.235000e+003	2.226795e+003	5.948767e+002	5.937476e+002	2.227924e+003		4.875000e+002	8.940000e+002	8.907180e+002	2.379507e+002	2.374990e+002	8.911697e+002
9.991500e+002	2.154000e+003	2.158476e+003	5.947033e+002	5.935871e+002	2.159592e+003		4.874500e+002	8.616000e+002	8.633904e+002	2.378813e+002	2.374349e+002	8.638369e+002
9.992000e+002	2.055000e+003	2.083384e+003	5.945441e+002	5.934407e+002	2.084487e+003		4.874000e+002	8.220000e+002	8.333536e+002	2.378176e+002	2.373763e+002	8.337950e+002
9.992500e+002	1.980000e+003	2.002817e+003	5.943983e+002	5.933074e+002	2.003908e+003		4.873500e+002	7.920000e+002	8.011268e+002	2.377593e+002	2.373230e+002	8.015631e+002
9.993000e+002	1.888000e+003	1.918097e+003	5.942652e+002	5.931867e+002	1.919175e+003		4.873000e+002	7.552000e+002	7.672388e+002	2.377061e+002	2.372747e+002	7.676702e+002
9.993500e+002	1.855000e+003	1.830543e+003	5.941440e+002	5.930776e+002	1.831610e+003		4.872500e+002	7.420000e+002	7.322174e+002	2.376576e+002	2.372310e+002	7.326439e+002
9.994000e+002	1.767000e+003	1.741447e+003	5.940343e+002	5.929798e+002	1.742501e+003		4.872000e+002	7.068000e+002	6.965786e+002	2.376137e+002	2.371919e+002	6.970004e+002
9.994500e+002	1.730000e+003	1.652150e+003	5.939354e+002	5.928927e+002	1.653192e+003		4.871500e+002	6.920000e+002	6.608599e+002	2.375742e+002	2.371571e+002	6.612770e+002
9.995000e+002	1.666000e+003	1.564164e+003	5.938470e+002	5.928158e+002	1.565195e+003		4.871000e+002	6.664000e+002	6.256655e+002	2.375388e+002	2.371263e+002	6.260780e+002
9.995500e+002	1.563000e+003	1.478449e+003	5.937685e+002	5.927486e+002	1.479469e+003		4.870500e+002	6.252000e+002	5.913797e+002	2.375074e+002	2.370994e+002	5.917877e+002
9.996000e+002	1.453000e+003	1.395819e+003	5.936989e+002	5.926901e+002	1.396827e+003		4.870000e+002	5.812000e+002	5.583274e+002	2.374795e+002	2.370760e+002	5.587309e+002
9.996500e+002	1.310000e+003	1.316953e+003	5.936372e+002	5.926394e+002	1.317950e+003		4.869500e+002	5.240000e+002	5.267811e+002	2.374549e+002	2.370558e+002	5.271802e+002
9.997000e+002	1.298000e+003	1.242400e+003	5.935822e+002	5.925952e+002	1.243387e+003		4.869000e+002	5.192000e+002	4.969599e+002	2.374329e+002	2.370381e+002	4.973547e+002
9.997500e+002	1.187000e+003	1.172579e+003	5.935337e+002	5.925573e+002	1.173555e+003		4.868500e+002	4.748000e+002	4.690315e+002	2.374135e+002	2.370229e+002	4.694221e+002
9.998000e+002	1.113000e+003	1.108108e+003	5.934907e+002	5.925248e+002	1.109074e+003		4.868000e+002	4.452000e+002	4.432431e+002	2.373963e+002	2.370099e+002	4.436295e+002
9.998500e+002	1.037000e+003	1.049507e+003	5.934526e+002	5.924970e+002	1.050463e+003		4.867500e+002	4.148000e+002	4.198029e+002	2.373810e+002	2.369988e+002	4.201852e+002
9.999000e+002	1.022000e+003	9.960928e+002	5.934187e+002	5.924731e+002	9.970383e+002		4.867000e+002	4.088000e+002	3.984371e+002	2.373675e+002	2.369893e+002	3.988153e+002
9.999500e+002	9.470000e+002	9.477591e+002	5.933888e+002	5.924532e+002	9.486947e+002		4.866500e+002	3.788000e+002	3.791036e+002	2.373555e+002	2.369813e+002	3.794779e+002
1.000000e+003	8.330000e+002	9.043334e+002	5.933623e+002	5.924365e+002	9.052593e+002		4.866000e+002	3.332000e+002	3.617334e+002	2.373449e+002	2.369746e+002	3.621037e+002
1.000050e+003	8.260000e+002	8.655870e+002	5.933381e+002	5.924219e+002	8.665032e+002		4.865500e+002	3.304000e+002	3.462348e+002	2.373352e+002	2.369688e+002	3.466013e+002
1.000100e+003	7.530000e+002	8.312483e+002	5.933161e+002	5.924095e+002	8.321550e+002		4.865000e+002	3.012000e+002	3.324993e+002	2.373265e+002	2.369638e+002	3.328620e+002
1.000150e+003	7.560000e+002	8.011398e+002	5.932958e+002	5.923984e+002	8.020371e+002		4.864500e+002	3.024000e+002	3.204559e+002	2.373183e+002	2.369594e+002	3.208149e+002
1.000200e+003	7.740000e+002	7.753009e+002	5.932770e+002	5.923889e+002	7.761890e+002		4.864000e+002	3.096000e+002	3.101203e+002	2.373108e+002	2.369556e+002	3.104756e+002
1.000250e+003	7.000000e+002	7.527432e+002	5.932601e+002	5.923810e+002	7.536222e+002		4.863500e+002	2.800000e+002	3.010973e+002	2.373040e+002	2.369524e+002	3.014489e+002
1.000300e+003	6.980000e+002	7.331376e+002	5.932443e+002	5.923741e+002	7.340077e+002		4.863000e+002	2.792000e+002	2.932550e+002	2.372977e+002	2.369496e+002	2.936031e+002
1.000350e+003	6.690000e+002	7.161675e+002	5.932295e+002	5.923681e+002	7.170289e+002		4.862500e+002	2.676000e+002	2.864670e+002	2.372918e+002	2.369472e+002	2.868116e+002
1.000400e+003	6.680000e+002	7.015318e+002	5.932156e+002	5.923628e+002	7.023845e+002		4.862000e+002	2.672000e+002	2.806127e+002	2.372862e+002	2.369451e+002	2.809538e+002
1.000450e+003	6.370000e+002	6.889476e+002	5.932024e+002	5.923582e+002	6.897918e+002		4.861500e+002	2.548000e+002	2.755791e+002	2.372810e+002	2.369433e+002	2.759167e+002
1.000500e+003	6.410000e+002	6.781621e+002	5.931898e+002	5.923541e+002	6.789979e+002		4.861000e+002	2.564000e+002	2.712648e+002	2.372759e+002	2.369416e+002	2.715992e+002
1.000550e+003	6.370000e+002	6.691582e+002	5.931778e+002	5.923503e+002	6.699857e+002		4.860500e+002	2.548000e+002	2.676633e+002	2.372711e+002	2.369401e+002	2.679943e+002
1.000600e+003	6.540000e+002	6.614035e+002	5.931663e+002	5.923469e+002	6.622229e+002		4.860000e+002	2.616000e+002	2.645614e+002	2.372665e+002	2.369388e+002	2.648891e+002
1.000650e+003	6.780000e+002	6.547236e+002	5.931555e+002	5.923441e+002	6.555350e+002		4.859500e+002	2.712000e+002	2.618895e+002	2.372622e+002	2.369377e+002	2.622140e+002
1.000700e+003	6.530000e+002	6.489646e+002	5.931456e+002	5.923421e+002	6.497680e+002		4.859000e+002	2.612000e+002	2.595858e+002	2.372582e+002	2.369368e+002	2.599072e+002
1.000750e+003	6.620000e+002	6.439906e+002	5.931363e+002	5.923406e+002	6.447862e+002		4.858500e+002	2.648000e+002	2.575962e+002	2.372545e+002	2.369363e+002	2.579145e+002
1.000800e+003	6.000000e+002	6.396837e+002	5.931278e+002	5.923398e+002	6.404717e+002		4.858000e+002	2.400000e+002	2.558735e+002	2.372511e+002	2.369359e+002	2.561887e+002
1.000850e+003	6.040000e+002	6.359415e+002	5.931194e+002	5.923390e+002	6.367219e+002		4.857500e+002	2.416000e+002	2.543766e+002	2.372478e+002	2.369356e+002	2.546888e+002
1.000900e+003	5.820000e+002	6.327414e+002	5.931113e+002	5.923383e+002	6.335143e+002		4.857000e+002	2.328000e+002	2.530965e+002	2.372445e+002	2.369353e+002	2.534057e+002
1.000950e+003	5.830000e+002	6.299270e+002	5.931033e+002	5.923377e+002	6.306926e+002		4.856500e+002	2.332000e+002	2.519708e+002	2.372413e+002	2.369351e+002	2.522770e+002
1.001000e+003	6.060000e+002	6.274327e+002	5.930953e+002	5.923370e+002	6.281910e+002		4.856000e+002	2.424000e+002	2.509731e+002	2.372381e+002	2.369348e+002	2.512764e+002
1.001050e+003	5.710000e+002	6.252110e+002	5.930876e+002	5.923364e+002	6.259622e+002		4.855500e+002	2.284000e+002	2.500844e+002	2.372351e+002	2.369346e+002	2.503849e+002
1.001100e+003	5.890000e+002	6.232217e+002	5.930800e+002	5.923359e+002	6.239658e+002		4.855000e+002	2.356000e+002	2.492887e+002	2.372320e+002	2.369344e+002	2.495863e+002
1.001150e+003	6.200000e+002	6.214316e+002	5.930725e+002	5.923353e+002	6.221688e+002		4.854500e+002	2.480000e+002	2.485726e+002	2.372290e+002	2.369341e+002	2.488675e+002
1.001200e+003	6.020000e+002	6.198152e+002	5.930654e+002	5.923350e+002	6.205456e+002		4.854000e+002	2.408000e+002	2.479261e+002	2.372262e+002	2.369340e+002	2.482182e+002
1.001250e+003	5.680000e+002	6.183724e+002	5.930584e+002	5.923348e+002	6.190959e+002		4.853500e+002	2.272000e+002	2.473489e+002	2.372234e+002	2.369339e+002	2.476384e+002
1.001300e+003	5.700000e+002	6.170647e+002	5.930515e+002	5.923346e+002	6.177816e+002		4.853000e+002	2.280000e+002	2.468259e+002	2.372206e+002	2.369338e+002	2.471126e+002
1.001350e+003	5.450000e+002	6.158669e+002	5.930448e+002	5.923344e+002	6.165773e+002		4.852500e+002	2.180000e+002	2.463468e+002	2.372179e+002	2.369338e+002	2.466309e+002
1.001400e+003	5.680000e+002	6.147647e+002	5.930381e+002	5.923342e+002	6.154686e+002		4.852000e+002	2.272000e+002	2.459059e+002	2.372152e+002	2.369337e+002	2.461875e+002
1.001450e+003	5.630000e+002	6.137462e+002	5.930315e+002	5.923340e+002	6.144437e+002		4.851500e+002	2.252000e+002	2.454985e+002	2.372126e+002	2.369336e+002	2.457775e+002
1.001500e+003	5.830000e+002	6.128016e+002	5.930250e+002	5.923338e+002	6.134928e+002		4.851000e+002	2.332000e+002	2.451207e+002	2.372100e+002	2.369335e+002	2.453971e+002
1.001550e+003	5.580000e+002	6.119230e+002	5.930185e+002	5.923335e+002	6.126080e+002		4.850500e+002	2.232000e+002	2.447692e+002	2.372074e+002	2.369334e+002	2.450432e+002
1.001600e+003	6.160000e+002	6.111096e+002	5.930122e+002	5.923333e+002	6.117884e+002		4.850000e+002	2.464000e+002	2.444438e+002	2.372049e+002	2.369333e+002	2.447154e+002
1.001650e+003	5.640000e+002	6.103523e+002	5.930061e+002	5.923333e+002	6.110251e+002		4.849500e+002	2.256000e+002	2.441409e+002	2.372024e+002	2.369333e+002	2.444100e+002
1.001700e+003	5.970000e+002	6.143084e+002	5.976668e+002	5.970000e+002	6.149752e+002		4.849000e+002	2.388000e+002	2.457233e+002	2.390667e+002	2.388000e+002	2.459901e+002
1.001750e+003	5.480000e+002	5.646406e+002	5.486609e+002	5.480000e+002	5.653015e+002		4.848500e+002	2.192000e+002	2.258562e+002	2.194644e+002	2.192000e+002	2.261206e+002
1.001800e+003	6.050000e+002	6.210121e+002	6.056551e+002	6.050000e+002	6.216672e+002		4.848000e+002	2.420000e+002	2.484048e+002	2.422620e+002	2.420000e+002	2.486669e+002
1.001850e+003	5.940000e+002	6.094197e+002	5.946494e+002	5.940000e+002	6.100691e+002		4.847500e+002	2.376000e+002	2.437679e+002	2.378597e+002	2.376000e+002	2.440276e+002
1.001900e+003	5.500000e+002	5.648607e+002	5.506437e+002	5.500000e+002	5.655044e+002		4.847000e+002	2.200000e+002	2.259443e+002	2.202575e+002	2.200000e+002	2.262018e+002
1.001950e+003	5.690000e+002	5.833348e+002	5.696381e+002	5.690000e+002	5.839729e+002		4.846500e+002	2.276000e+002	2.333339e+002	2.278552e+002	2.276000e+002	2.335892e+002
1.002000e+003	5.600000e+002	5.738397e+002	5.606326e+002	5.600000e+002	5.744723e+002		4.846000e+002	2.240000e+002	2.295359e+002	2.242530e+002	2.240000e+002	2.297889e+002
1.002050e+003	5.620000e+002	5.753702e+002	5.626272e+002	5.620000e+002	5.759974e+002		4.845500e+002	2.248000e+002	2.301481e+002	2.250509e+002	2.248000e+002	2.303989e+002
1.002100e+003	5.600000e+002	5.729246e+002	5.606218e+002	5.600000e+002	5.735463e+002		4.845000e+002	2.240000e+002	2.291698e+002	2.242487e+002	2.240000e+002	2.294185e+002
1.002150e+003	5.870000e+002	5.995011e+002	5.876165e+002	5.870000e+002	6.001176e+002		4.844500e+002	2.348000e+002	2.398005e+002	2.350466e+002	2.348000e+002	2.400470e+002
1.002200e+003	5.660000e+002	5.780985e+002	5.666112e+002	5.660000e+002	5.787097e+002		4.844000e+002	2.264000e+002	2.312394e+002	2.266445e+002	2.264000e+002	2.314839e+002
1.002250e+003	6.180000e+002	6.297153e+002	6.186061e+002	6.180000e+002	6.303213e+002		4.843500e+002	2.472000e+002	2.518861e+002	2.474424e+002	2.472000e+002	2.521285e+002
1.002300e+003	6.060000e+002	6.173512e+002	6.066010e+002	6.060000e+002	6.179521e+002		4.843000e+002	2.424000e+002	2.469405e+002	2.426404e+002	2.424000e+002	2.471808e+002
1.002350e+003	5.430000e+002	5.540061e+002	5.435959e+002	5.430000e+002	5.546020e+002		4.842500e+002	2.172000e+002	2.216024e+002	2.174384e+002	2.172000e+002	2.218408e+002
1.002400e+003	5.390000e+002	5.496765e+002	5.395909e+002	5.390000e+002	5.502675e+002		4.842000e+002	2.156000e+002	2.198706e+002	2.158364e+002	2.156000e+002	2.201070e+002
1.002450e+003	5.740000e+002	5.843616e+002	5.745860e+002	5.740000e+002	5.849476e+002		4.841500e+002	2.296000e+002	2.337446e+002	2.298344e+002	2.296000e+002	2.339791e+002
1.002500e+003	5.480000e+002	5.580605e+002	5.485812e+002	5.480000e+002	5.586416e+002		4.841000e+002	2.192000e+002	2.232242e+002	2.194325e+002	2.192000e+002	2.234567e+002
1.002550e+003	5.870000e+002	5.967723e+002	5.875764e+002	5.870000e+002	5.973487e+002		4.840500e+002	2.348000e+002	2.387089e+002	2.350306e+002	2.348000e+002	2.389395e+002
